wavelength,Baseline 100%T,Baseline 0%T,VG05,VG01,VG06,VG02,VG02_pos2,VG02_pos3,VG02_pos4,VG03_pos1,VG03_pos2,VG04_pos1,VG04_pos2,VG06_post,Baseline 100%T.1,Baseline 0%T.1,VG05_post
2500,7.427118778,-0.001233500545,53.44220352,53.46673584,53.26279831,36.73754501,52.97230911,53.064991000000006,33.51265335,38.42193222,52.00098038,25.86162186,54.21126556,53.93852615,7.585160255,6.684759137e-05,53.52186584
2490,7.814319611,-0.001347292447,53.43076706,53.48458862,53.28832245,36.67827988,53.00161362,53.10456848,33.58802795,37.25441742,52.00122452,25.78409958,54.29377747,53.99093628,7.991348743,0.0002073429205,53.39387131
2480,8.378715515,-0.0008377652848,53.50493622,53.48173904,53.299366000000006,36.47394562,53.02513123,53.11955261,33.55770493,36.03536606,51.96908188,25.83531761,54.25370789,53.96316147,8.566405296000001,3.385428499e-05,53.49346542
2470,8.825397491,-0.001670021215,53.37726593,53.47412872,53.29953003,36.20426178,53.00200653,53.10367203,33.459510800000004,34.83848572,51.94159698,25.70676422,54.26666641,53.97063446,9.022456169,-0.00012711439920000002,53.40670776
2460,9.592031479,-0.00138405594,53.37683487,53.46980286,53.29036713,35.95513916,53.008461,53.09202576,33.41516495,33.56981659,51.89875412,25.67559242,54.24507141,53.95054245,9.799633026,-0.0007365244091000001,53.35288239
2450,10.16228294,1.87337173e-05,53.43616104,53.44901657,53.25436401,35.70307541,52.98153687,53.07583618,33.436798100000004,32.25574875,51.89953995,25.63781166,54.22249603,53.94091034,10.38401318,0.0006343835848,53.43139267
2440,11.10680962,-0.001573760877,53.37546921,53.43795395,53.26262665,35.56127167,52.97689438,53.07451629999999,33.55376816,30.96268463,51.87364960000001,25.64555359,54.19596481,53.91497803,11.34223747,-0.0007587792934,53.39593887
2430,11.92858219,-0.0006380801206,53.34985733,53.39651108,53.22232819,35.49808121,52.946739199999996,53.04277420000001,33.66535568,29.70109367,51.8461647,25.59416962,54.17125702,53.87868118,12.17712498,0.0002692957059,53.382553099999996
2420,12.84568024,-0.0005881750258,53.33337021,53.40562439,53.22819519,35.60148239,52.95738983,53.05508423,33.74349594,28.54239655,51.83569336,25.56207275,54.17141724,53.89209366,13.11925983,-0.0010653031059999999,53.30184174
2410,13.94301033,-0.001235576696,53.32872772,53.37417603,53.20837021,35.78556824,52.95982361,53.04954147,33.71717834,27.51801872,51.81935501,25.50876236,54.16239548,53.88063049,14.23699093,0.001070311526,53.29730988
2400,15.15835571,-0.001437997445,53.33421707,53.37967682,53.20624542,36.03246689,52.94942856,53.04917145,33.63341522,26.65656853,51.80207443,25.45216942,54.14691544,53.87818146,15.47693348,0.0005681684706,53.29666138
2390,16.49286652,-0.0014633063690000002,53.33645248,53.35799408,53.19258499,36.26084518,52.936798100000004,53.02744675,33.49766541,25.94625664,51.75868225,25.39769363,54.11643219,53.84167862,16.83660889,-0.0007676205132,53.28678894
2380,18.00468445,-0.0007624336286,53.29037857,53.35961533,53.18777466,36.34782791,52.92829895,53.02488327,33.45023727,25.3808918,51.73723221,25.35376549,54.09559631,53.82068253,18.37749863,0.001076811692,53.24019623
2370,19.62462807,-0.001306030434,53.31762314,53.36071777,53.18929672,36.32954788,52.92723846,53.03300095,33.48514938,24.9295063,51.72600555,25.34182358,54.088741299999995,53.80591583,20.02931595,-0.0005489845643999999,53.27148438
2360,21.26463509,-0.0009197906475000001,53.28163528,53.35620117,53.16975784,36.19485855,52.91536331,53.011108400000005,33.55784607,24.52836227,51.71086884,25.33069038,54.0617218,53.78106689,21.69773483,1.6238227539999998e-05,53.2351799
2350,22.69275856,-0.000304178393,53.29463959,53.35358429,53.16401672,35.99385071,52.90722656,52.98897552,33.55445099,24.13568878,51.69750595,25.27012825,54.04384232,53.75659561,23.14518547,-0.0001707717311,53.25930786
2340,23.72661209,-0.0005626442144,53.25051498,53.33551788,53.15824127,35.75656891,52.89332962,52.97114944,33.46600342,23.71270943,51.68973923,25.2430439,54.00426483,53.72610092,24.18410492,0.0005420909729,53.2296257
2330,24.03633881,0.0003144890943,53.06919098,53.15016556,52.97904205,35.45218658,52.71133804,52.78533173,33.26292801,23.16865921,51.52028656,25.14201736,53.81075287,53.52936554,24.40800858,-0.00019101453649999998,53.21284485
2320,22.92892075,-0.0008315174491000001,53.2383728,53.29924393,53.12981033,35.44629669,52.86059952,52.93881226,33.35842896,22.7452755,51.67355347,25.19176674,53.96026993,53.67805481,23.34106064,-0.0002625915513,53.21383667
2310,20.54205894,-0.0003822076833,53.25508118,53.3156929,53.141170499999994,35.44887924,52.88051987,52.96391678,33.48656464,22.27321625,51.69179535,25.17346191,53.96146011,53.69900894,20.9137764,0.001016067341,53.21936035
2300,17.14125443,-0.0015747054709999999,53.2906723,53.33892822,53.15260315,35.5933609,52.90598297,53.00183105,33.66517258,21.88730431,51.71373367,25.17759132,53.98204803,53.72466278,17.45543861,-0.0009490332450000001,53.23612213
2290,13.49142361,-0.0014891910829999998,53.33545685,53.36585236,53.17753601,35.81980896,52.95087051,53.06280899,33.77755737,21.62956619,51.76130676,25.20337677,54.02695465,53.75629807,13.74295521,0.0003755530925,53.28176117
2280,10.25174999,-0.0009556098958,53.36489868,53.43008041,53.22714996,36.10645676,53.03541565,53.14878082,33.84502411,21.5103302,51.8507309,25.22252274,54.10411453,53.8391037,10.45406532,-0.00044862041250000003,53.30792236
2270,7.839286327000001,-0.001968936995,53.38296127,53.48594666,53.25247574,36.31852722,53.08701324,53.22153091,33.87401581,21.56387711,51.95234299,25.23968887,54.14426804,53.91558456,8.003741264,-0.000111936366,53.29985809
2260,6.878718853,-0.00128362223,53.37043381,53.42551422,53.32896805,36.30899429,53.08338928,53.16266251,33.84977722,21.6645031,51.9765625,25.25483894,54.20244217,53.950763699999996,7.019694328,-0.0004134493356,53.36180496
2250,8.3966465,-0.001301515498,53.34439087,53.38191223,53.26849747,36.23471069,53.03896713,53.10998535,33.85211563,21.82509041,51.93687057,25.1810112,54.13222504,53.89330292,8.560948372,-0.00116900471,53.3506813
2240,9.427620888,-0.001202606945,53.31933975,53.37296677,53.36948013,36.08251572,53.03761292,53.12350464,33.89984894,22.06142807,51.97175598,25.15134239,54.129074100000004,53.90662003,9.613545418,-8.342150976999999e-05,53.34584808
2230,10.35681343,-0.001117274864,53.33664322,53.39427185,53.41093063,35.91654587,53.05706406,53.13207626,33.87006378,22.30390739,52.01686478,25.13507652,54.1344986,53.89479446,10.5637579,-7.245233428e-05,53.319091799999995
2220,11.31447029,-0.001017884584,53.32252884,53.39626694,53.29153442,35.77986526,53.04227448,53.14204788,33.72369003,22.531225199999998,52.02960968,25.10114098,54.11296463,53.88071442,11.54057121,-7.79032689e-06,53.30530548
2210,12.32448959,0.001007679384,53.32315445,53.37382126,53.23610306,35.69770813,53.03858948,53.12682343,33.52779007,22.72912788,52.03758621,25.08013153,54.09010696,53.850811,12.569546699999998,-0.00010121176459999999,53.28677368
2200,13.23757458,-0.001590458909,53.30305862,53.383071900000004,53.239048,35.70996857,53.03796005,53.1219902,33.45008469,22.96274567,52.05620956,25.06820488,54.07334137,53.83894348,13.49753761,-0.0007396425353000001,53.27125168
2190,13.18504238,-0.001441041939,53.29792023,53.36270905,53.23807144,35.82505798,53.02220535,53.10427094,33.50823975,23.27066612,52.07345581,25.07246971,54.04124832,53.81977081,13.43704033,8.716629236e-05,53.28414917
2180,10.97507,-0.001174611389,53.29548645,53.39260864,53.28033447,36.04704666,53.04888916,53.14514542,33.71390152,23.76338005,52.18014145,25.08863449,54.07543945,53.86729431,11.18970871,0.0006660382495999999,53.27420807
2170,10.71065426,-0.001011533896,53.31975937,53.40299606,53.27589417,36.1897049,53.0883255,53.17176437,33.80406189,24.39384079,52.27932739,25.09135628,54.10675812,53.87407684,10.92459679,0.0004441732017,53.27639771
2160,10.80580902,-0.0014182741289999999,53.31949615,53.40702057,53.27356339,36.25169373,53.08507156,53.17986679,33.84640503,25.18898773,52.35112762,25.07746887,54.10744476,53.8727684,11.02260113,0.00033461913699999997,53.28561783
2150,10.95737267,-0.0004654115473,53.32467651,53.39604568,53.28019333,36.21600723,53.07815552,53.16806412,33.94158554,26.113370899999996,52.42035294,25.05156708,54.082798,53.87001801,11.17448521,0.001410633209,53.27912521
2140,11.10704422,-0.0007698354892999999,53.30709076,53.4000206,53.28483582,36.10283661,53.08341217,53.17696381,34.07807159,27.18528557,52.49694443,25.0315876,54.09575653,53.86367416,11.32739449,-0.00010487803229999999,53.28484726
2130,11.27597427,-0.001003320212,53.30948257,53.39467621,53.28358841,35.97057343,53.08799744,53.17857361,34.18544769,28.35727882,52.559204099999995,25.02051544,54.08262634,53.86541367,11.49960041,0.0006643239176,53.27778625
2120,11.46922302,-0.0012060953300000001,53.30015945,53.38978577,53.27138138,35.88430405,53.08194733,53.18643951,34.15999603,29.57036209,52.62930298,25.03435516,54.07313538,53.87008667,11.69660282,0.0002304411755,53.27423859
2110,11.66514206,-0.001859152107,53.31286621,53.38510895,53.27718353,35.86149597,53.10161209,53.18711472,33.96060944,30.85894203,52.7227211,25.03853226,54.09180069,53.86341095,11.89525318,-5.139650966e-06,53.28052521
2100,11.86389446,-0.0014479926319999998,53.29650116,53.38059235,53.27215958,35.91394424,53.08720016,53.19489288,33.76867676,32.26062012,52.83024216,25.05074692,54.07636261,53.86629868,12.09873581,0.001102952287,53.26264572
2090,12.07124233,-0.0012079343429999998,53.289348600000004,53.38090134,53.26284027,36.01852798,53.08975601,53.188980099999995,33.59628296,33.82367325,52.91123962,25.04717445,54.07249832,53.86350632,12.30994129,0.00037344213339999996,53.26282883
2080,12.28555489,-0.001176576596,53.28437805,53.37436676,53.26165009,36.15974808,53.08706665,53.18431091,33.62112045,35.57879257,52.98715210000001,25.04027176,54.06668091,53.8552475,12.5263319,-3.623751036e-05,53.24773788
2070,12.50357437,-0.001550278859,53.29641724,53.36594009,53.2570343,36.24528122,53.09308624,53.18938446,33.65124512,37.55564879999999,53.04458237,25.03588867,54.06226349,53.85587311,12.74874401,0.0009785678702999999,53.25894928
2060,12.7387228,-0.00033358577639999997,53.27308655,53.35597229,53.24135971,36.24755859,53.08000565,53.18601608,33.68243027,39.70154953,53.08402252,25.024604800000002,54.05744934,53.84741592,12.99041367,0.00028796301919999996,53.23501968
2050,12.97757339,-0.001019043732,53.26893234,53.35839462,53.32458496,36.16143036,53.087390899999995,53.18507385,33.82274246,41.96299744,53.09875488,25.02702713,54.042202,53.83860016,13.23222351,0.0001017469549,53.24014282
2040,13.22761631,-0.0014151502400000001,53.27025223,53.35216522,53.34483337,36.05092621,53.098083499999994,53.19064713,34.0550499,44.27614594,53.09187317,25.03406906,54.03908539,53.83991623,13.48675632,0.0008914591744999999,53.24166489
2030,13.48363781,-0.000852043042,53.26392746,53.34792328,53.23677063,35.97388458,53.124298100000004,53.19012833,34.24590683,46.52772522,53.0594101,25.05178833,54.02702713,53.83552933,13.74878407,-0.0001234949013,53.23434448
2020,13.73610687,-0.001447428949,53.22038651,53.30429077,53.19321823,35.96401978,53.05301666,53.15325928,34.22531891,48.58346176,52.963871,25.05020523,53.99647903,53.78121567,13.99391937,0.0001498957718,53.22273254
2010,13.98865604,-0.001003952581,53.25511169,53.34762955,53.23672485,36.06464005,53.09132385,53.18613052,34.03773499,50.47672272,52.94772339,25.09109116,54.02202606,53.81507111,14.2619133,0.0002387439017,53.21172333
2000,14.24158096,-0.001464185189,53.24168396,53.33636475,53.25406647,36.17065048,53.09744644,53.19264603,33.8228035,51.97610092,52.85256577,25.10112762,54.01563644,53.80751419,14.51769638,-0.0009453204111000001,53.225498200000004
1990,17.16695213,-0.001383659546,53.17856598,53.24593353,53.14642334,35.66474152,52.96861649,53.07846069,33.55126572,52.858932499999995,52.62483978,24.78935623,53.935008999999994,53.71646118,17.49810219,-0.0002048196329,53.14826202
1980,17.69939804,-0.001066091936,53.18063354,53.24116516,53.13868713,35.73856735,52.961170200000005,53.07601166,33.43634796,53.221111300000004,52.50421906,24.80051422,53.92826843,53.71504593,18.04072762,6.879914145e-05,53.13719939999999
1970,18.23776817,-0.001707839197,53.16622162,53.23386765,53.12817001,35.69717407,52.95462799,53.06149292,33.3146286,52.89438248,52.39768219,24.81165886,53.92023849,53.69932556,18.58600616,-0.0004422894563,53.13391113
1960,18.67147446,-0.001486189431,53.124481200000005,53.21871185,53.11955261,35.61597061,52.94464111,53.05231857,33.30789948,51.89994431,52.32884216,24.84864998,53.90627289,53.69277573,19.03331757,-0.0009461257141000001,53.10923386
1950,19.20265198,-0.001806840533,53.15542221,53.20916748,53.11834335,35.53639221,52.93682098,53.04447556,33.53074646,50.32967758,52.25571823,24.90514755,53.89897919,53.69501114,19.57231331,0.0006200624047999999,53.15428925
1940,19.00861931,-0.001887219376,53.06657028,53.19841385,53.0860672,35.52733231,52.92197418,53.03987122,33.81858826,48.36576843,52.22990036,24.95922089,53.93982697,53.77801132,19.39819527,-0.0003254790499,53.10334396
1930,19.09645081,-0.001477891114,53.2936554,53.20666504,53.09249878,35.60108948,52.90542984,53.03973007,33.94839859,46.02862167,52.16042328,24.94212341,53.9825325,53.78424454,19.50872993,-0.0008761748322000001,53.38225555
1920,18.04278374,-0.001122108311,53.04098129,53.2391243,53.13211823,35.7036972,52.93566132,53.09504318,33.86290741,43.54047012,52.15628815,25.09310913,54.06895828,53.89743423,18.48320198,-0.0001245789026,53.04432678
1910,18.96078873,-0.000579929736,53.11512756,53.16170883,53.11180496,35.72735977,52.89490128,53.01919556,33.67339325,40.82053757,52.032546999999994,25.18717384,54.03180695,53.8729248,19.39646339,-0.0001826874941,53.31591797
1900,18.55771446,-0.001525246771,52.96643829,53.19589996,53.11953354,35.82433701,52.93162918,53.07398605,33.61839294,38.33075333,52.09050751,25.10885811,54.12704849,53.97523499,19.03159332,-4.792886466e-05,52.98691559
1890,21.12587738,-0.0008062729612,53.19038773,53.16847992,53.09095383,35.75891876,52.912582400000005,53.06225586,33.42622375,35.85120773,51.98747635,25.2549057,54.00008011,53.83117294,21.6186409,-0.00011299360629999999,53.35521698
1880,22.39951897,-0.0007497846963999999,53.13097763,53.15081406,53.07610703,35.65509796,52.89364624,53.03571701,33.18304443,33.66245651,51.93352127,25.26564217,53.96205139,53.79100418,22.90853882,0.000433979847,53.17765427
1870,17.37005424,-0.001319326111,52.87905502,53.1672821,53.0830574,35.71273804,52.88948822,53.07614899,33.26442337,31.81776428,52.07226944,25.43977737,54.23702621,54.12425995,17.86504364,-0.0005182039458,52.92048645
1860,22.06569672,-0.000795195403,52.95446396,53.17043686,53.11959457,35.66544724,52.9162941,53.04536819,33.44148254,29.97019577,51.90338516,25.41697693,54.02941132,53.90452194,22.63565445,0.0006710615707999999,52.87567902
1850,22.29104042,-0.001668237033,52.87290955,53.14383698,53.11730957,35.77117538,52.92417526,53.03858948,33.69135284,28.33380318,51.90470886,25.31529999,54.09582901,53.94948578,22.886083600000003,-5.7215460400000005e-05,52.78940964
1840,21.79445267,-0.0009642619989,53.11293793,53.09062195,53.10971832,35.82958984,52.88375473,52.99763489,33.76150513,26.82022476,51.89816284,25.37714767,54.11920547,54.01160049,22.38783264,0.00023591249190000002,53.21882248
1830,24.51323891,-0.001029072562,53.16749954,53.09794617,53.00598907,35.85427475,52.83119583,52.97471237,33.72180939,25.45862579,51.80010223,25.62949944,53.93876266,53.77224731,25.09253311,0.00041030315329999996,53.41431046
1820,26.04935455,-0.001772594405,52.94582367,53.04869843,53.00479126,35.80696106,52.80220413,52.93224335,33.71418381,24.33991051,51.73143005,25.50059509,53.85057449,53.69567871,26.65750122,-0.00048472842900000005,52.92575455
1810,29.20091438,-0.0010509836719999998,52.87014771,53.03248215,52.90852356,35.68834686,52.742630000000005,52.88347626,33.50845718,23.43762398,51.59925079,25.49985695,53.70631409,53.5096817,29.78944206,-0.0001191458432,52.84988403
1800,31.07781029,-0.00044431418060000003,52.86372757,52.99647522,52.896984100000005,35.62438965,52.73794556,52.86693573,33.26495743,22.78725433,51.55346298,25.554842,53.66448593,53.46604156,31.68254471,2.94650763e-05,52.83667374
1790,33.02156067,-0.0005006740103,52.88655853,52.97269821,52.87759781,35.64254379,52.72898865,52.85437012,33.19950867,22.26593399,51.55133438,25.58774376,53.6309166,53.43944931,33.65007401,-1.66350801e-05,52.85643768
1780,34.21412277,-0.0004392435658,52.87834549,52.95664597,52.8603363,35.73081589,52.71977615,52.84540558,33.31484985,21.85646439,51.57959366,25.67614937,53.61938477,53.42747498,34.86661911,0.00018582267509999997,52.84529495
1770,35.46489334,-1.0837662560000001e-05,52.85479355,52.93616486,52.84669876,35.79877472,52.70645142,52.8312149,33.41997147,21.55674171,51.59651184,25.76296616,53.60053635,53.4014473,36.13944244,0.0002622658212,52.81806183
1760,36.63792801,-0.00144794106,52.84067917,52.91672897,52.82846832,35.8216362,52.69031525,52.8142395,33.55741501,21.40898323,51.5887146,25.84809113,53.57568359,53.3806572,37.33353424,0.0008300892659,52.79788971
1750,37.81394196,-0.0010661222040000001,52.976303099999996,52.90029526,52.81562805,35.77455902,52.67614746,52.81593323,33.73976898,21.45224953,51.59247971,25.92108917,53.55988312,53.36280441,38.53040314,0.0005251888651,52.780212399999996
1740,39.03967285,-0.0009904726176,52.80918503,52.88208008,52.79935074,35.69136429,52.65887451,52.79666138,33.73648834,21.71110153,51.64185333,26.00253296,53.53851318,53.34607315,39.77342606,-0.0002552389924,52.77152634
1730,40.30942917,5.402218812e-05,52.95199203,52.86803436,52.77757645,35.6531105,52.64298248,52.78083038,33.49467087,22.17057228,51.72268677,26.10162163,53.522789,53.33010483,41.06816483,0.0015172993300000001,52.75409317
1720,41.61435699,-0.001145743998,52.75481415,52.83589935,52.73888779,35.68418121,52.60507965,52.74964142,33.29728699,22.77822113,51.78294754,26.20817184,53.48625946,53.29573059,42.41344452,0.0007677858812,52.69536972
1710,42.98777771,0.0002743755758,52.70768356,52.79070663,52.69132233,35.73758698,52.56735611,52.80205154,33.2271843,23.54084969,51.829421999999994,26.30794716,53.44098663,53.24771881,43.76969147,0.001270786859,52.70404053
1700,44.32245636,-0.0005841274397000001,52.72978592,52.81102753,52.70796967,35.80964661,52.58541107,52.71514511,33.21569443,24.54707336,51.95365524,26.441522600000003,53.45956802,53.26240158,45.15723419,0.00130541285,52.686435700000004
1690,45.73602295,-0.00028496366580000004,52.70822144,52.79207993,52.68883133,35.78226852,52.56877136,52.69924545,33.35611343,25.82562828,52.08567429,26.56091499,53.44071198,53.24583054,46.60029602,-3.0831750339999996e-05,52.66567612
1680,47.19702911,0.00034644332480000004,52.68727493,52.77819061,52.67197037,35.70465088,52.55260468,52.68556976,33.60744858,27.44063377,52.23279572,26.67650032,53.42221832,53.22615433,48.09437561,0.0007734271931,52.64043808
1670,48.65843201,0.00046761304839999996,52.67070389,52.76394653,52.65536499,35.64852142,52.53507614,52.66905975,33.60006714,29.41637421,52.35906982,26.79942322,53.39870453,53.20718765,49.58169937,0.001310813474,52.62385178
1660,50.1945076,-0.0003820307902,52.65135956,52.75250626,52.63784027,35.67152405,52.52488708,52.6542244,33.39227295,31.72640228,52.46932983,26.93083954,53.38005447,53.1902504,51.15097046,0.0010272522920000001,52.6043129
1650,51.74440765,0.0002500984119,52.63369751,52.73570251,52.62192917,35.7325325,52.50489044,52.63228607,33.27202606,34.36051559,52.53793716,27.08118057,53.35918045,53.17136765,52.72778702,0.001114908722,52.58743286
1640,53.31119156,0.0003075264976,52.61470795,52.71554565,52.60518265,35.75969696,52.48418427,52.61327744,33.12641907,37.38434601,52.55897522,27.25782776,53.33827209,53.14506149,54.32246399,0.000890735304,52.56594467
1630,54.895633700000005,-0.00024877479880000005,52.59493637,52.69400024,52.58544159,35.73743439,52.46431732,52.59192657,33.08067322,40.74906158,52.51246643,27.41402626,53.31623459,53.12390137,55.93133545,0.002545089461,52.55142593
